 # E_R :   9.0395345457937008E-032   136.42376640002485     
 # E_HO:    3.3130351053671157E-033   5.00000000    
 # l_HO:    207453.62181297553     
 # N=2 a N sqrt(m  omega_x /hbar) sqrt(2 l k):    931.19993510306119     
  -51.199949980946258      -0.98825823496680698     
  -51.149901153985411      -0.95330735787677001     
  -51.099852327024564      -0.89596818537984280     
  -51.049803500063717      -0.81758732024968617     
  -50.999754673102871      -0.72000552658853834     
  -50.949705846142024      -0.60551449972924787     
  -50.899657019181177      -0.47680304607783386     
  -50.849608192220330      -0.33689393685575331     
  -50.799559365259483      -0.18907291872329787     
  -50.749510538298637       -3.6811548460084054E-002
  -50.699461711337790       0.11631433608018728     
  -50.649412884376943       0.26670859404200092     
  -50.599364057416096       0.41083923645356835     
  -50.549315230455250       0.54532137451397888     
  -50.499266403494403       0.66699671325261933     
  -50.449217576533556       0.77300772366281489     
  -50.399168749572709       0.86086475138718144     
  -50.349119922611862       0.92850448591627732     
  -50.299071095651016       0.97433841715900382     
  -50.249022268690169       0.99729014138909011     
  -50.198973441729322       0.99682064044209540     
  -50.148924614768475       0.97294094048482116     
  -50.098875787807629       0.92621185306711296     
  -50.048826960846782       0.85773080453792439     
  -49.998778133885935       0.76910606313475804     
  -49.948729306925088       0.66241896901986064     
  -49.898680479964241       0.54017505428566848     
  -49.848631653003395       0.40524520086984450     
  -49.798582826042548       0.26079821827808625     
  -49.748533999081701       0.11022642451797528     
  -49.698485172120854       -4.2934022034295000E-002
  -49.648436345160007      -0.19508616883898783     
  -49.598387518199161      -0.34265674314067890     
  -49.548338691238314      -0.48218006979951145     
  -49.498289864277467      -0.61037946220693695     
  -49.448241037316620      -0.72424417483112635     
  -49.398192210355774      -0.82110011017182638     
  -49.348143383394927      -0.89867261958148725     
  -49.298094556434080      -0.95513992308350504     
  -49.248045729473233      -0.98917589363064506     
  -49.197996902512386      -0.99998120102071741     
  -49.147948075551540      -0.98730208405932018     
  -49.097899248590693      -0.95143631010728691     
  -49.047850421629846      -0.89322618205425153     
  -48.997801594668999      -0.81403875694820749     
  -48.947752767708153      -0.71573374084425345     
  -48.897703940747306      -0.60061981385725915     
  -48.847655113786459      -0.47140041111919262     
  -48.797606286825612      -0.33111023296766212     
  -48.747557459864765      -0.18304397541564668     
  -48.697508632903919       -3.0678954657625910E-002
  -48.647459805943072       0.12240655723473272     
  -48.597410978982225       0.27261736755212973     
  -48.547362152021378       0.41642579556610432     
  -48.497313325060531       0.55045451963763936     
  -48.447264498099685       0.67155589316281972     
  -48.397215671138838       0.77688586663100501     
  -48.347166844177991       0.86397077974605307     
  -48.297118017217144       0.93076545500649377     
  -48.247069190256298       0.97570122842482465     
  -48.197020363295451       0.99772278939075243     
  -48.146971536334604       0.99631296449933893     
  -48.096922709373757       0.97150486329904828     
  -48.046873882412910       0.92388110071834750     
  -47.996825055452064       0.85456011443242852     
  -47.946776228491217       0.76516989850426864     
  -47.896727401530370       0.65780977016265740     
  -47.846678574569523       0.53500106761856603     
  -47.796629747608677       0.39962793677559960     
  -47.746580920647830       0.25486959745034038     
  -47.696532093686983       0.10412567982150897     
  -47.646483266726136       -4.9063615428740298E-002
  -47.596434439765289      -0.20110065825287352     
  -47.546385612804443      -0.34841487909700208     
  -47.496336785843596      -0.48754662324784431     
  -47.446287958882749      -0.61522840035949433     
  -47.396239131921902      -0.72846162102591383     
  -47.346190304961056      -0.82458701825077740     
  -47.296141478000209      -0.90134709997613549     
  -47.246092651039362      -0.95693916598060003     
  -47.196043824078515      -0.99005764405211205     
  -47.145994997117668      -0.99992475117620916     
  -47.095946170156822      -0.98630875966587184     
  -47.045897343195975      -0.94952943925501421     
  -46.995848516235128      -0.89045054734929918     
  -46.945799689274281      -0.81045954379925078     
  -46.895750862313434      -0.71143500659189940     
  -46.845702035352588      -0.59570251369874583     
  -46.795653208391741      -0.46598002718903936     
  -46.745604381430894      -0.32531406225529302     
  -46.695555554470047      -0.17700814021263614     
  -46.645506727509201       -2.4545205743972918E-002
  -46.595457900548354       0.12849416958867724     
  -46.545409073587507       0.27851587658693389     
  -46.495360246626660       0.42199667558839565     
  -46.445311419665813       0.55556693927748846     
  -46.395262592704967       0.67608978793083585     
  -46.345213765744120       0.78073475861681918     
  -46.295164938783273       0.86704427823774299     
  -46.245116111822426       0.93299137930431109     
  -46.195067284861580       0.97702730299523599     
  -46.145018457900733       0.99811787155039422     
  -46.094969630939886       0.99576777579670761     
  -46.044920803979039       0.97003220741765961     
  -45.994871977018192       0.92151556278402136     
  -45.944823150057346       0.85135724878619656     
  -45.894774323096499       0.76120492401615203     
  -45.844725496135652       0.65317580372656658     
  -45.794676669174805       0.52980693731458262     
  -45.744627842213959       0.39399562605708194     
  -45.694579015253112       0.24893138037889526     
  -45.644530188292265        9.8021014628410105E-002
  -45.594481361331418       -5.5191361500418645E-002
  -45.544432534370571      -0.20710757590871892     
  -45.494383707409725      -0.35415989668173176     
  -45.444334880448878      -0.49289481979420913     
  -45.394286053488031      -0.62005417418913000     
  -45.344237226527184      -0.73265163948781298     
  -45.294188399566337      -0.82804287932349163     
  -45.244139572605491      -0.90398764322600400     
  -45.194090745644644      -0.95870237860366048     
  -45.144041918683797      -0.99090211723642962     
  -45.093993091722950      -0.99983065258237414     
  -45.043944264762104      -0.98527829918670240     
  -44.993895437801257      -0.94758681711664383     
  -44.943846610840410      -0.88764138577200036     
  -44.893797783879563      -0.80684981556583679     
  -44.843748956918716      -0.70710948568565002     
  -44.793700129957870      -0.59076278439783880     
  -44.743651302997023      -0.46054209837341609     
  -44.693602476036176      -0.31950564295363776     
  -44.643553649075329      -0.17096564037301731     
  -44.593504822114483       -1.8410532664479003E-002
  -44.543455995153636       0.13457694393378503     
  -44.493407168192789       0.28440389905820251     
  -44.443358341231942       0.42755166676801254     
  -44.393309514271095       0.56065844094283535     
  -44.343260687310249       0.68059822684837601     
  -44.293211860349402       0.78455425470339735     
  -44.243163033388555       0.87008513114017294     
  -44.193114206427708       0.93518217500013923     
  -44.143065379466861       0.97831659094147172     
  -44.093016552506015       0.99847537299257549     
  -44.042967725545168       0.99518509486142637     
  -43.992918898584321       0.96852302828851611     
  -43.942870071623474       0.91911532833039378     
  -43.892821244662628       0.84812232819218902     
  -43.842772417701781       0.75721128895797130     
  -43.792723590740934       0.64851724418775814     
  -43.742674763780087       0.52459285894093621     
  -43.692625936819240       0.38834848077970485     
  -43.642577109858394       0.24298379064702838     
  -43.592528282897547        9.1912658788984872E-002
  -43.542479455936700       -6.1317029529990741E-002
  -43.492430628975853      -0.21310669563656448     
  -43.442381802015007      -0.35989157958586926     
  -43.392332975054160      -0.49822445807057963     
  -43.342284148093313      -0.62485660199780535     
  -43.292235321132466      -0.73681407245600983     
  -43.242186494171619      -0.83146756327135674     
  -43.192137667210773      -0.90659414991046483     
  -43.142088840249926      -0.96042949456490301     
  -43.092040013289079      -0.99170928138784098     
  -43.041991186328232      -0.99969890878213352     
  -42.991942359367386      -0.98421074142028120     
  -42.941893532406539      -0.94560851683496516     
  -42.891844705445692      -0.88479880309177283     
  -42.841795878484845      -0.80320970815995363     
  -42.791747051523998      -0.70275734098819120     
  -42.741698224563152      -0.58580081194316003     
  -42.691649397602305      -0.45508682941892453     
  -42.641600570641458      -0.31368519375888299     
  -42.591551743680611      -0.16491670340647166     
  -42.541502916719764       -1.2275166399293547E-002
  -42.491454089758918       0.14065465124397145     
  -42.441405262798071       0.29028121327257866     
  -42.391356435837224       0.43309055995073570     
  -42.341307608876377       0.56572883293059462     
  -42.291258781915531       0.68508104016556537     
  -42.241209954954684       0.78834421108065911     
  -42.191161127993837       0.87309322396043954     
  -42.141112301032990       0.93733775960708943     
  -42.091063474072143       0.97956904371978870     
  -42.041014647111297       0.99879528025678876     
  -41.990965820150450       0.99456494363234060     
  -41.940916993189603       0.96697738273456912     
  -41.890868166228756       0.91668048773004884     
  -41.840819339267910       0.84485547445031139     
  -41.790770512307063       0.75318914369639234     
  -41.740721685346216       0.64383426694836909     
  -41.690672858385369       0.51935902881594920     
  -41.640624031424522       0.38268671356744516     
  -41.590575204463676       0.23702705219088213     
  -41.540526377502829        8.5800842292494614E-002
  -41.490477550541982       -6.7440388876346166E-002
  -41.440428723581135      -0.21909779156005671     
  -41.390379896620288      -0.36560971200247144     
  -41.340331069659442      -0.50353533740761791     
  -41.290282242698595      -0.62963550296652915     
  -41.240233415737748      -0.74094876320828107     
  -41.190184588776901      -0.83486094114959886     
  -41.140135761816055      -0.90916652189042690     
  -41.090086934855208      -0.96212044883572301     
  -41.040038107894361      -0.99247910611535128     
  -40.989989280933514      -0.99952952473586243     
  -40.939940453972667      -0.98310612656184682     
  -40.889891627011821      -0.94359461289610724     
  -40.839842800050974      -0.88192290633634240     
  -40.789793973090127      -0.79953935863739301     
  -40.739745146129280      -0.69837873636468606     
  -40.689696319168434      -0.58081678316083618     
  -40.639647492207587      -0.44961442572510824     
  -40.589598665246740      -0.30785293382014062     
  -40.539549838285893      -0.15886155706504623     
  -40.489501011325046       -6.1393379546669288E-003
  -40.439452184364200       0.14672706268394139     
  -40.389403357403353       0.29614759793988138     
  -40.339354530442506       0.43861314658847400     
  -40.289305703481659       0.57077792433247898     
  -40.239256876520813       0.68953805909738586     
  -40.189208049559966       0.79210448505075637     
  -40.139159222599119       0.87606844343907930     
  -40.089110395638272       0.93945805196397025     
  -40.039061568677425       0.98078461417334517     
  -39.989012741716579       0.99907758129802449     
  -39.938963914755732       0.99390734545916026     
  -39.888915087794885       0.96539532895184188     
  -39.838866260834038       0.91421113265863496     
  -39.788817433873191       0.84155681056277576     
  -39.738768606912345       0.74913863967157501     
  -39.688719779951498       0.63912704832991341     
  -39.638670952990651       0.51410564400158132     
  -39.588622126029804       0.37701053759476366     
  -39.538573299068958       0.23106138929113085     
  -39.488524472108111        7.9685795258505707E-002
  -39.438475645147264       -7.3561208985359769E-002
  -39.388426818186417      -0.22508063810495568     
  -39.338377991225570      -0.37131407863480326     
  -39.288329164264724      -0.50882725784229188     
  -39.238280337303877      -0.63439069716211127     
  -39.188231510343030      -0.74505555606702967     
  -39.138182683382183      -0.83822288519213783     
  -39.088133856421337      -0.91170466231199143     
  -39.038085029460490      -0.96377517774902777     
  -38.988036202499643      -0.99321156243382447     
  -38.937987375538796      -0.99932250682114732     
  -38.887938548577949      -0.98196449620189619     
  -38.837889721617103      -0.94154518112675600     
  -38.787840894656256      -0.87901380378775784     
  -38.737792067695409      -0.79583890519267786     
  -38.687743240734562      -0.69397383667649259     
  -38.637694413773715      -0.57581088570742767     
  -38.587645586812869      -0.44412509333659494     
  -38.537596759852022      -0.30200908273124510     
  -38.487547932891175      -0.15280042933458435     
  -38.437499105930328       -3.2783542501337932E-006
  -38.387450278969482       0.15279394961779255     
  -38.337401452008635       0.30200283218144303     
  -38.287352625047788       0.44411921874711091     
  -38.237303798086941       0.57580552504219940     
  -38.187254971126094       0.69396911583003829     
  -38.137206144165248       0.79583493503342240     
  -38.087157317204401       0.87901067755437745     
  -38.037108490243554       0.94154297223842254     
  -37.987059663282707       0.98196325653401850     
  -37.937010836321861       0.99932226548719338     
  -37.886962009361014       0.99321232510147017     
  -37.836913182400167       0.96377692650714808     
  -37.786864355439320       0.91170735609124420     
  -37.736815528478473       0.83822646072945883     
  -37.686766701517627       0.74505992939140264     
  -37.636717874556780       0.63439576556660171     
  -37.586669047595933       0.50883290229611822     
  -37.536620220635086       0.37132016657869843     
  -37.486571393674240       0.22508702656438512     
  -37.436522566713393        7.3567747928215771E-002
  -37.386473739752546       -7.9679259398422894E-002
  -37.336424912791699      -0.23105501000762196     
  -37.286376085830852      -0.37700446470444088     
  -37.236327258870006      -0.51410002012545986     
  -37.186278431909159      -0.63912200554396503     
  -37.136229604948312      -0.74913429640497131     
  -37.086180777987465      -0.84155326881652326     
  -37.036131951026618      -0.91420847561017038     
  -36.986083124065772      -0.96539361900160237     
  -36.936034297104925      -0.99390662276511055     
  -36.885985470144078      -0.99907786283251832     
  -36.835936643183231      -0.98078589332460497     
  -36.785887816222385      -0.93946029869125969     
  -36.735838989261538      -0.87607160497834846     
  -36.685790162300691      -0.79210848715365945     
  -36.635741335339844      -0.68954280777508514     
  -36.585692508378997      -0.57078330806291278     
  -36.535643681418151      -0.43861903893545634     
  -36.485594854457304      -0.29615386052242321     
  -36.435546027496457      -0.14673354842613653     
  -36.385497200535610        6.1327813696019093E-003
  -36.335448373574764       0.15885508361763254     
  -36.285399546613917       0.30784669553842448     
  -36.235350719653070       0.44960856911428304     
  -36.185301892692223       0.58081144576264432     
  -36.135253065731376       0.69837404352720356     
  -36.085204238770530       0.79953542057127702     
  -36.035155411809683       0.88191981552654297     
  -35.985106584848836       0.94359244192986935     
  -35.935057757887989       0.98310492642404745     
  -35.885008930927143       0.99952932361155455     
  -35.834960103966296       0.99247990872789060     
  -35.784911277005449       0.96212223633591798     
  -35.734862450044602       0.90916925229903467     
  -35.684813623083755       0.83486455034335028     
  -35.634764796122909       0.74095316642575793     
  -35.584715969162062       0.62964059679874285     
  -35.534667142201215       0.50354100222659737     
  -35.484618315240368       0.36561581477071514     
  -35.434569488279521       0.21910418895487288     
  -35.384520661318675        6.7446930655787718E-002
  -35.334471834357828       -8.5794309761269644E-002
  -35.284423007396981      -0.23702068232349235     
  -35.234374180436134      -0.38268065595933903     
  -35.184325353475288      -0.51935342572926435     
  -35.134276526514441      -0.64382924997084923     
  -35.084227699553594      -0.75318483065107611     
  -35.034178872592747      -0.84485196662848228     
  -34.984130045631900      -0.91667786751243108     
  -34.934081218671054      -0.96697571165662921     
  -34.884032391710207      -0.99456426093911787     
  -34.833983564749360      -0.99879560198125716     
  -34.783934737788513      -0.97957036230627281     
  -34.733885910827667      -0.93734004408874294     
  -34.683837083866820      -0.87309642068656390     
  -34.633788256905973      -0.78834824497653666     
  -34.583739429945126      -0.68508581649570022     
  -34.533690602984279      -0.56573423952352175     
  -34.483641776023433      -0.43309646983334471     
  -34.433592949062586      -0.29028748765206297     
  -34.383544122101739      -0.14066114276737224     
  -34.333495295140892        1.2268610184529563E-002
  -34.283446468180045       0.16491023647216810     
  -34.233397641219199       0.31367896798012684     
  -34.183348814258352       0.45508099100729466     
  -34.133299987297505       0.58579549801297470     
  -34.083251160336658       0.70275267633638772     
  -34.033202333375812       0.80320580233524086     
  -33.983153506414965       0.88479574782194104     
  -33.933104679454118       0.94560638387258666     
  -33.883055852493271       0.98420958085772525     
  -33.833007025532424       0.99969874787501645     
  -33.782958198571578       0.99171012391508107     
  -33.732909371610731       0.96043132073985982     
  -33.682860544649884       0.90659691684565635     
  -33.632811717689037       0.83147120598566260     
  -33.582762890728191       0.73681850540077776     
  -33.532714063767344       0.62486172106594029     
  -33.482665236806497       0.49823014304144120     
  -33.432616409845650       0.35989769694868773     
  -33.382567582884803       0.21311310172589429     
  -33.332518755923957        6.1323573899680628E-002
  -33.282469928963110       -9.1906129832579564E-002
  -33.232421102002263      -0.24297743043557293     
  -33.182372275041416      -0.38834243868191493     
  -33.132323448080570      -0.52458727685466944     
  -33.082274621119723      -0.64851225320755290     
  -33.032225794158876      -0.75720700629631588     
  -32.982176967198029      -0.84811885442684665     
  -32.932128140237182      -0.91911274504225327     
  -32.882079313276336      -0.96852139614577204     
  -32.832030486315489      -0.99518445219473239     
  -32.781981659354642      -0.99847573489485342     
  -32.731932832393795      -0.97831794891351453     
  -32.681884005432948      -0.93518449715014718     
  -32.631835178472102      -0.87008836293277514     
  -32.581786351511255      -0.78455832024036443     
